Field 0.3 2000
1.0 5.996501999999998
2.0 6.2103705000000025
3.0 6.471829500000008
4.0 6.519530999999988
5.0 7.040788500000012
6.0 7.771233000000004
7.0 8.426793000000014
8.0 9.556831500000005
9.0 10.680280499999986
10.0 12.77524949999998
11.0 15.071283
12.0 18.40035150000002
13.0 23.710168500000037
14.0 31.15078349999995
15.0 43.83845700000002
16.0 65.02803599999987
