Field 0.3 2000
-16.0 64.63244850000007
-15.0 44.08031700000008
-14.0 32.077704000000026
-13.0 23.692098000000016
-12.0 18.281734500000027
-11.0 15.151138500000016
-10.0 13.04165700000001
-9.0 11.556331499999969
-8.0 9.584227500000006
-7.0 8.540230500000003
-6.0 7.561120500000008
-5.0 7.052656499999991
-4.0 6.565882499999995
-3.0 6.301196999999997
-2.0 6.041502000000006
-1.0 6.1388294999999955
0.0 5.990428500000008
